Time (s),X (m),Y (m),Z (m)
0.0,0.0,0.243,1.089
0.002,0.0007299288751761678,0.2429949758297575,1.089002525114701
0.004,0.0021416648237363592,0.24295646456362943,1.0890219204883036
0.006,0.004142753025705536,0.242835857565326,1.0890827112217036
0.008,0.006605857729403659,0.24257993058437285,1.0892112517381132
0.01,0.009381438526150403,0.24215034078463749,1.0894245046126296
0.012,0.012312037566718278,0.24154149921954815,1.0897194387419196
0.014,0.015247188513576818,0.24079007427588361,1.0900678380884505
0.016,0.018054700767547793,0.23997199125962382,1.0904194861242869
0.018000000000000002,0.0206249612035269,0.23918823137893205,1.0907124699831106
0.020000000000000004,0.022870230508234213,0.23854470490304217,1.0908862319524448
0.022000000000000006,0.024722722723845708,0.238132448089713,1.0908927566504998
0.024000000000000007,0.02613498802317604,0.2380123115552918,1.0907036095465201
0.02600000000000001,0.02708386038022362,0.2382054047231208,1.0903132300208636
0.02800000000000001,0.027575092984798634,0.23868973150164807,1.0897396608350087
0.030000000000000013,0.027646583347099817,0.23940292354508574,1.0890234626508928
0.032000000000000015,0.027370565144987438,0.2402505381493126,1.0882246038957324
0.034000000000000016,0.026853645019725435,0.24112011292541924,1.0874158670132283
0.03600000000000002,0.026233820517835106,0.24190051984654665,1.0866714606208703
0.03800000000000002,0.025674984470850266,0.24250401781009773,1.086051497161193
0.04000000000000002,0.02535738376490902,0.242885886907114,1.0855860945117701
0.04200000000000002,0.02546344868656553,0.2430542955130081,1.0852655026092592
0.044000000000000025,0.02616227667854014,0.24306492521372747,1.0850413598444053
0.04600000000000003,0.027596403252868874,0.2430012217210865,1.0848387520350204
0.04800000000000003,0.02987340978100865,0.24294725584831775,1.0845735093682796
0.05000000000000003,0.033061992458611744,0.24296224421366125,1.0841681204636362
0.05200000000000003,0.03718828190639484,0.24306307949102168,1.0835630940207588
0.054000000000000034,0.04223087794317125,0.24321746406180217,1.0827242109756114
0.056000000000000036,0.04811732226034354,0.24334824413725387,1.0816466542850802
0.05800000000000004,0.05472375322983447,0.24334850788283824,1.0803556910806194
0.06000000000000004,0.06187924993992458,0.2431061338785901,1.0789019353965728
0.06200000000000004,0.06937672403075089,0.24253422709847267,1.07734942580681
0.06400000000000004,0.07698982751762265,0.24159995597764183,1.0757585847873568
0.06600000000000004,0.08449408164737762,0.24034145239532895,1.0741707387716495
0.06800000000000005,0.09168778641529356,0.23886490630216134,1.0726018530789974
0.07000000000000005,0.09840485387509376,0.23732325335960752,1.071048606024915
0.07200000000000005,0.1045165312514223,0.23588621173326435,1.069502568506396
0.07400000000000005,0.10992661575249044,0.23471197943301753,1.067964234997525
0.07600000000000005,0.11456595955379303,0.23392655106387208,1.0664505185587771
0.07800000000000006,0.11839029615376404,0.2336112093477845,1.0649941548070692
0.08000000000000006,0.12138170058681388,0.23379508009117544,1.0636386783139191
0.08200000000000006,0.12355215468317508,0.23445532684790588,1.0624300141464253
0.08400000000000006,0.12494547016226015,0.235520555436909,1.0614114776765293
0.08600000000000006,0.125638253083163,0.23687960575461142,1.060620470328669
0.08800000000000006,0.12573849992043284,0.23839542555864823,1.0600863717252014
0.09000000000000007,0.12538190341693117,0.2399230773897738,1.0598275085994195
0.09200000000000007,0.12472684685927378,0.24133028375641244,1.0598447764333885
0.09400000000000007,0.12394656319341252,0.24251816771063195,1.0601128823884751
0.09600000000000007,0.1232176261774566,0.2434368556050603,1.060574321048862
0.09800000000000007,0.12270690501111138,0.24408952309508952,1.0611418580097192
0.10000000000000007,0.12255977204701456,0.24452219293771787,1.0617116218812934
0.10200000000000008,0.12289238446304727,0.24480256492659774,1.0621827464737819
0.10400000000000008,0.12378821544102983,0.24499580181389158,1.062476463688
0.10600000000000008,0.12529531399724572,0.24514527501828007,1.0625496831930372
0.10800000000000008,0.12742284409710702,0.24526279500962211,1.0624007701724638
0.11000000000000008,0.13013855181960607,0.24532943602039675,1.0620671570843152
0.11200000000000009,0.1333685122405145,0.24530582623534547,1.0616160652603654
0.11400000000000009,0.13700125346423858,0.24514917014285725,1.0611296985556404
0.11600000000000009,0.14089759347446384,0.2448326370105281,1.0606871888054499
0.11800000000000009,0.14490412711224498,0.24436153252346654,1.0603478447513197
0.12000000000000009,0.14886803973829738,0.24378074005198438,1.0601406001260278
0.1220000000000001,0.15265056567432456,0.24317026555837928,1.0600629872307838
0.1240000000000001,0.15613474403901234,0.24263051191055662,1.0600897377789775
0.12600000000000008,0.15922671890449835,0.24226258581753002,1.060186647845454
0.12800000000000009,0.16185437187349705,0.24214936592132838,1.0603234823357262
0.1300000000000001,0.16396706571320266,0.24234156181377864,1.0604817073845008
0.1320000000000001,0.16553902999856507,0.2428502552712937,1.0606562080198818
0.1340000000000001,0.16657283099421136,0.2436370844387069,1.0608559537828266
0.1360000000000001,0.16711146122530873,0.24463661060457506,1.0610937256979511
0.1380000000000001,0.16723728393920503,0.24575683263997217,1.061385345789658
0.1400000000000001,0.1670705331712247,0.24689367364068243,1.061744630030513
0.1420000000000001,0.16676200134413352,0.24794826311191898,1.062177535746281
0.1440000000000001,0.16648043754977343,0.24884456632438193,1.0626754516714794
0.1460000000000001,0.166397445062408,0.24954358262797968,1.063208966273703
0.1480000000000001,0.16667221126416693,0.2500495983605444,1.0637256836266378
0.1500000000000001,0.1674397058016236,0.2504047982649049,1.0641552603247322
0.1520000000000001,0.1688052233020746,0.2506726471575696,1.0644214408344759
0.1540000000000001,0.17084384744814846,0.25091530436023496,1.0644575023129699
0.1560000000000001,0.1736016374438811,0.25117256016638645,1.0642200220533278
0.1580000000000001,0.17709491297081534,0.25144857282496863,1.0636975190653666
0.16000000000000011,0.18130499691791827,0.2517093416146378,1.0629134377467275
0.16200000000000012,0.1861708740391103,0.25189100143787596,1.0619235880826945
0.16400000000000012,0.1915849002666278,0.25191707313601713,1.060807948206685
0.16600000000000012,0.1973950143191076,0.2517210946892329,1.0596572752281153
0.16800000000000012,0.2034159489503046,0.2512694061977594,1.0585557597677948
0.17000000000000012,0.20944870839654306,0.25057749505384624,1.0575634517754933
0.17200000000000013,0.21530260580076924,0.24971419492236197,1.0567046436476404
0.17400000000000013,0.22081376369837385,0.24879172162202784,1.0559668492668632
0.17600000000000013,0.2258553209673193,0.24794463016291488,1.0553105537773075
0.17800000000000013,0.2303369538166481,0.24730474843725775,1.0546854670873202
0.18000000000000013,0.23419757175177933,0.24697871338196556,1.0540467012228285
0.18200000000000013,0.23739833282976422,0.2470317351793201,1.0533656087061012
0.18400000000000014,0.23992067531482547,0.24747891132722788,1.0526335040279293
0.18600000000000014,0.24177104541841904,0.24828363555060784,1.0518595354964997
0.18800000000000014,0.24299001707852502,0.24936252882637044,1.0510654904977144
0.19000000000000014,0.24366063091920614,0.2505970503007511,1.0502798467467285
0.19200000000000014,0.24391266468565856,0.25185099901465746,1.0495315870493631
0.19400000000000014,0.24392063503942701,0.25299215179203444,1.0488431356483232
0.19600000000000015,0.2438929830519466,0.2539155242210597,1.0482219559457562
0.19800000000000015,0.24405332764455906,0.25456388950037323,1.0476515500486372
0.20000000000000015,0.24461795557208568,0.25493977389297834,1.0470851341746175
0.20200000000000015,0.24577490371114027,0.25510348409981815,1.0464469151359377
0.20400000000000015,0.2476712599299289,0.25515555109645865,1.0456429597683496
0.20600000000000016,0.25041158134608665,0.2552085773821362,1.044578300515232
0.20800000000000016,0.254063335271406,0.25535759174402584,1.0431740404576972
0.21000000000000016,0.2586630253486084,0.25565739633988227,1.0413789767721406
0.21200000000000016,0.2642176740096744,0.2561115422709742,1.0391739612416577
0.21400000000000016,0.2706996082962527,0.2566734503802829,1.0365707542966818
0.21600000000000016,0.27803848946316595,0.2572583255750699,1.0336074114079346
0.21800000000000017,0.2861166043722024,0.25776354891987974,1.0303412105231646
0.22000000000000017,0.2947711862733971,0.25809388843898184,1.0268395045360186
0.22200000000000017,0.30380570171484406,0.25818645861257394,1.0231685256990135
0.22400000000000017,0.31300843015167923,0.2580290974946303,1.019381686415769
0.22600000000000017,0.32217307469842454,0.25766638942561404,1.0155112215226676
0.22800000000000017,0.331116620046463,0.25719080187588084,1.0115668749715603
0.23000000000000018,0.3396902760425254,0.2567216815891635,1.0075428993432167
0.23200000000000018,0.34778125752953964,0.25637962140583004,1.0034310708656369
0.23400000000000018,0.355308975572722,0.2562639139449529,0.999234244894971
0.23600000000000018,0.362221552033028,0.25643756587645294,0.9949748853464195
0.23800000000000018,0.36849575914544236,0.25692106141687165,0.9906956949318388
0.24000000000000019,0.3741406544366679,0.2576934738236799,0.9864524892916285
0.2420000000000002,0.3792020709105373,0.2586989731260084,0.9823020930265501
0.2440000000000002,0.38376381171204965,0.2598574799248131,0.9782891756270161
0.2460000000000002,0.3879436910048937,0.2610780096068526,0.974434953686659
0.2480000000000002,0.3918836638903621,0.2622730276029842,0.9707300481938123
0.25000000000000017,0.3957342854212909,0.26337173889254,0.9671333309040935
0.25200000000000017,0.39963733146222197,0.2643294901575327,0.963576275639023
0.25400000000000017,0.4037113402213289,0.265131026994591,0.9599711152203696
0.25600000000000017,0.4080429841398754,0.2657865969372651,0.9562218470507048
0.2580000000000002,0.4126859850868741,0.26632144038244177,0.9522365952115416
0.2600000000000002,0.4176662668995391,0.2667616708214534,0.9479395421813169
0.2620000000000002,0.42298893598248216,0.2671213231761632,0.9432813005163736
0.2640000000000002,0.4286431435318689,0.26739504831710914,0.9382464239566661
0.2660000000000002,0.43460257886181786,0.26755883259891255,0.9328575859030267
0.2680000000000002,0.4408219894286612,0.2675783456972194,0.9271764454339029
0.2700000000000002,0.4472334366246282,0.26742227667645463,0.9212995681079806
0.2720000000000002,0.4537457840872556,0.2670768779007283,0.9153481545790534
0.2740000000000002,0.46024866447939367,0.2665578168059469,0.9094524867775601
0.2760000000000002,0.4666211389257505,0.2659157130364994,0.9037334855236427
0.2780000000000002,0.47274328191958137,0.26523308851544874,0.8982864873294762
0.2800000000000002,0.4785073269360832,0.26461325092664173,0.8931730618825868
0.2820000000000002,0.4838261973955971,0.26416394666854304,0.8884226841327156
0.2840000000000002,0.4886381937811159,0.26397988715663007,0.8840424527651011
0.2860000000000002,0.49290773583191994,0.264128056768427,0.8800308548804114
0.2880000000000002,0.4966245918148963,0.2646377321519329,0.8763893972426811
0.2900000000000002,0.49980404506910714,0.2654960028196117,0.8731268984734953
0.2920000000000002,0.5024885115706152,0.26664936395751926,0.870254939508418
0.2940000000000002,0.5047500045313366,0.2680111407720598,0.8677762839758109
0.2960000000000002,0.5066910342702554,0.2694742659967907,0.8656710205786035
0.2980000000000002,0.5084408596731319,0.27092826362773204,0.8638857806665012
0.3000000000000002,0.51014614326547,0.27227745976863926,0.862328985419234
0.3020000000000002,0.5119564989466917,0.2734566671583267,0.8608737149646358
0.3040000000000002,0.5140069645294959,0.27444069064590243,0.8593684848137952
0.3060000000000002,0.5164024193976465,0.27524477072810805,0.8576528913992099
0.3080000000000002,0.5192091584734895,0.27591535452166666,0.8555741523786264
0.3100000000000002,0.522456079525335,0.2765131664754928,0.8530018428842614
0.3120000000000002,0.5261445136426253,0.2770928063145697,0.8498385560065416
0.3140000000000002,0.5302614712234737,0.2776844774634202,0.8460262599210115
0.3160000000000002,0.5347893630798789,0.2782829644909931,0.8415500792221086
0.3180000000000002,0.5397081309792322,0.27884701284068725,0.8364402418342505
0.32000000000000023,0.5449896970124916,0.2793093895353704,0.8307723581501889
0.32200000000000023,0.5505882886667359,0.27959508015640533,0.8246653637614076
0.32400000000000023,0.5564326221160808,0.27964305661613176,0.8182744060750317
0.32600000000000023,0.5624243365889922,0.2794260566453425,0.8117771892545363
0.32800000000000024,0.5684434992599803,0.27896334327744043,0.8053551979264537
0.33000000000000024,0.5743597080428631,0.27832294330022816,0.7991729530855527
0.33200000000000024,0.5800454510080895,0.2776124853034288,0.7933610962116205
0.33400000000000024,0.5853878622257644,0.2769671914833021,0.7880054586450159
0.33600000000000024,0.5902974977968197,0.2765139887348912,0.7831586708097745
0.33800000000000024,0.5947121636169708,0.27635975738459884,0.7788465882124935
0.34000000000000025,0.5985975739062284,0.27657643594091846,0.7750827036203476
0.34200000000000025,0.6019464270229676,0.27719247260104163,0.7718793863279422
0.34400000000000025,0.6047774218502824,0.27819033104813623,0.7692508647356379
0.34600000000000025,0.6071342157340547,0.27950976950405054,0.7672069786487626
0.34800000000000025,0.6090840316503013,0.2810562184189444,0.7657401863533093
0.35000000000000026,0.6107147671391444,0.28271387005983184,0.764811451230672
0.35200000000000026,0.612129253999874,0.28436264671079625,0.7643410347895803
0.35400000000000026,0.6134368542065154,0.2858962881987023,0.7642073233973866
0.35600000000000026,0.6147432947997813,0.2872378808803541,0.7642548395319629
0.35800000000000026,0.6161402332644325,0.2883492553203138,0.7643101678189609
0.36000000000000026,0.617697356739305,0.28923175341090046,0.7642007308823041
0.36200000000000027,0.6194594702427142,0.28991833671888567,0.7637715366799546
0.36400000000000027,0.6214495518814337,0.2904592007743689,0.7628975779689445
0.36600000000000027,0.6236769201818576,0.2909047041029719,0.7614907280343456
0.36800000000000027,0.6261466379077851,0.29129052058553184,0.7595023049106209
0.3700000000000003,0.6288649930556635,0.2916292987161048,0.7569237051706618
0.3720000000000003,0.6318382558112411,0.2919109054745377,0.7537855332201034
0.3740000000000003,0.6350651694240639,0.2921104698988011,0.7501548923818302
0.3760000000000003,0.6385266088458822,0.29220110123691323,0.7461302197558005
0.3780000000000003,0.6421777579042115,0.2921672046257735,0.7418320800936057
0.3800000000000003,0.6459466840875343,0.292014726523772,0.7373900191081395
0.3820000000000003,0.6497401179832144,0.29177588895043205,0.7329275360210415
0.3840000000000003,0.6534550082209832,0.2915072141343997,0.72854780721851
0.3860000000000003,0.6569921673008297,0.2912812309459524,0.7243243050591247
0.3880000000000003,0.6602680242277987,0.29117397129206596,0.7202993810905307
0.3900000000000003,0.6632228821954307,0.2912486251909072,0.7164909615409446
0.3920000000000003,0.6658249719442424,0.2915490034188259,0.7128992752108307
0.3940000000000003,0.6680713044597127,0.292087450093779,0.709518903030598
0.3960000000000003,0.6699868228927608,0.29284201573769075,0.7063444906562547
0.3980000000000003,0.6716231206856389,0.2937598981127874,0.703368688532963
0.4000000000000003,0.6730559268803814,0.29476707794583096,0.7005729639613814
0.4020000000000003,0.6743801670605752,0.2957824156652563,0.697914932898292
0.4040000000000003,0.6757012388320947,0.29673329863982806,0.6953183258156325
0.4060000000000003,0.6771226650002906,0.29756909608293003,0.6926708144026484
0.4080000000000003,0.6787328017629247,0.298268779436224,0.6898308727575616
0.4100000000000003,0.6805934512617315,0.2988408412990318,0.686642615181778
0.4120000000000003,0.6827330569468254,0.2993156480891451,0.6829555139620953
0.4140000000000003,0.6851472000519562,0.29973219177071064,0.6786431550922084
0.4160000000000003,0.6878065729641754,0.3001227097744711,0.6736167005570086
0.4180000000000003,0.6906695205294793,0.3004990417815843,0.6678320646342688
0.4200000000000003,0.6936946610710645,0.30084426022684807,0.6612913762873446
0.4220000000000003,0.6968484917726817,0.3011122978296816,0.6540412299193578
0.4240000000000003,0.7001048366564285,0.3012368634471203,0.6461699528105578
0.4260000000000003,0.7034372409742691,0.30114846582561255,0.637803246648261
0.4280000000000003,0.7068087881206863,0.3007951878478818,0.6290973466153085
0.4300000000000003,0.7101651129365614,0.3001609466482995,0.6202294494791522
0.43200000000000033,0.7134347275007163,0.2992756001264403,0.6113849869453134
0.43400000000000033,0.7165360848561468,0.298214475095015,0.6027431785571549
0.43600000000000033,0.7193874065615414,0.29708853992052836,0.5944631111703609
0.43800000000000033,0.7219157524287001,0.29602794844774255,0.5866720825592815
0.44000000000000034,0.7240635886248104,0.2951624049387797,0.5794593734539073
0.44200000000000034,0.7257928122722404,0.29460228253084253,0.5728775478529625
0.44400000000000034,0.727087242359813,0.2944235966840303,0.5669495610272011
0.44600000000000034,0.7279542049650769,0.294658905296267,0.5616788162720862
0.44800000000000034,0.7284254849221097,0.2952945990346581,0.5570584689938476
0.45000000000000034,0.7285574806729723,0.29627350598067315,0.5530748409290898
0.45200000000000035,0.7284289485019306,0.297502430006836,0.5497023853897874
0.45400000000000035,0.7281346103853427,0.2988647170224309,0.5468920124135553
0.45600000000000035,0.7277746189121086,0.30023689144628096,0.5445576646428053
0.45800000000000035,0.7274414266506364,0.3015074268681727,0.5425684228205128
0.46000000000000035,0.7272070672557541,0.3025940331650346,0.5407515839508038
0.46200000000000035,0.7271144768714836,0.30345475503877056,0.5389068379289439
0.46400000000000036,0.7271750639138728,0.30408974571241637,0.536828555867309
0.46600000000000036,0.7273727990785402,0.304533197852091,0.5343304498378226
0.46800000000000036,0.7276735801163046,0.30483768683676205,0.5312649583941268
0.47000000000000036,0.728037462565023,0.3050554300108143,0.5275335028163195
0.47200000000000036,0.7284309026990835,0.3052214083624487,0.5230882851088338
0.47400000000000037,0.7288359900387188,0.3053425791474172,0.5179281672428271
0.47600000000000037,0.7292537801767083,0.30539607737765595,0.5120931855128193
0.47800000000000037,0.7297001695605922,0.3053372280229666,0.5056608812094985
0.48000000000000037,0.7301954550976325,0.30511542168169,0.4987433741202562
0.4820000000000004,0.7307517290103668,0.3046931627424099,0.4914831976225788
0.4840000000000004,0.7313635848909816,0.3040623592889545,0.4840461629895094
0.4860000000000004,0.7320058305874281,0.30325293834557004,0.4766098314241936
0.4880000000000004,0.7326378890271501,0.3023320128737806,0.4693490869563213
0.4900000000000004,0.7332115699189639,0.3013949604157908,0.46242156404733703
0.4920000000000004,0.7336790370668754,0.3005509606513493,0.455955215646737
0.4940000000000004,0.7339995360001228,0.2999062175890467,0.4500414084101877
0.4960000000000004,0.7341447681861158,0.2995482706483982,0.44473516890807496
0.4980000000000004,0.7341032051016242,0.29953387408127136,0.4400605569443004
0.5000000000000003,0.7338833719768315,0.2998822506371529,0.4360187431351189
0.5020000000000003,0.7335157079214727,0.30057418455435925,0.4325955759937168
0.5040000000000003,0.733051728077614,0.3015559682088446,0.42976421113986313
0.5060000000000003,0.7325585429101946,0.3027476412275676,0.42748153108329
0.5080000000000003,0.7321081723341983,0.3040548682620958,0.4256809249345747
0.5100000000000003,0.7317637965220787,0.30538264316417535,0.424265758761666
